Beryllium Aluminum Oxide (BeAl6O10)	Al6Be1O10(l)
T(K)	Cp	S	-[G-H(Tr)]/T	H-H(Tr)	delta-f H	delta-f G	log Kf
0														
100														
200														
298.15	265.186	314.903	314.903	0.	-5299.312	-5033.981	881.933
300	266.546	316.548	314.908	0.492	-5299.391	-5032.335	876.207
400	324.268	401.832	326.143	30.275	-5301.355	-4942.905	645.477
500	358.527	478.189	349.073	64.558	-5300.266	-4853.375	507.029
600	380.560	545.629	376.328	101.581	-5297.720	-4764.221	414.762
700	396.083	605.518	404.873	140.452	-5294.599	-4675.547	348.894
800	407.827	659.205	433.367	180.671	-5291.446	-4587.329	299.522
900	417.249	707.802	461.203	221.939	-5288.643	-4499.488	261.143
1000	425.178	752.185	488.114	264.071	-5349.998	-4407.369	230.217
1100	431.998	793.036	514.002	306.937	-5346.498	-4313.271	204.820
1200	437.939	830.883	538.851	350.439	-5342.649	-4219.509	183.670
1300	443.295	866.151	562.687	394.503	-5338.496	-4126.080	165.788
1400	448.316	899.188	585.555	439.087	-5334.063	-4032.982	150.472
1400.010	448.316	899.191	585.557	439.091	GLASS <--> LIQUID
1400.010	569.024	899.191	585.557	439.091	TRANSITION
1500	569.024	938.446	607.787	495.988	-5317.538	-3940.627	137.225
1600	569.024	975.170	629.614	552.890	-5315.768	-3848.840	125.652
1700	569.024	1009.667	650.965	609.793	-5299.273	-3757.662	115.459
1800	569.024	1042.191	671.805	666.695	-5282.920	-3667.453	106.427
1900	569.024	1072.957	692.116	723.598	-5266.706	-3578.147	98.370
2000	569.024	1102.144	711.894	780.500	-5250.630	-3489.692	91.141
2100	569.024	1129.907	731.144	837.402	-5234.689	-3402.038	84.621
2186.000	569.024	1152.745	747.284	886.338	CRYSTAL <--> LIQUID
2200	569.024	1156.378	749.876	894.305	5218.884  3315.136 78.711
2300	569.024	1181.672	768.104	951.207	-5203.212	-3228.956	73.332
2400	569.024	1205.889	785.844	1008.110	-5187.674	-3143.454	68.415
2500	569.024	1229.118	803.113	1065.012	-5172.266	-3058.595	63.906
2600	569.024	1251.436	819.930	1121.914	-5156.987	-2974.350	59.755
2700	569.024	1272.911	836.312	1178.817	-5141.834	-2890.689	55.924
2800	569.024	1293.605	852.277	1235.719	-7181.169	-2795.558	52.152
2900	569.024	1313.573	867.841	1292.622	-7158.624	-2639.331	47.539
3000	569.024	1332.863	883.022	1349.524	-7136.183	-2483.875	43.248
3100	569.024	1351.522	897.836	1406.426	-7113.842	-2329.164	39.246
3200	569.024	1369.587	912.297	1463.329	-7091.601	-2175.178	35.506
3300	569.024	1387.097	926.421	1520.231	-7069.458	-2021.884	32.004
3400	569.024	1404.084	940.221	1577.134	-7047.412	-1869.255	28.718
3500	569.024	1420.579	953.711	1634.036	-7025.465	-1717.278	25.629
3600	569.024	1436.609	966.904	1690.938	-7003.614	-1565.924	22.721
3700	569.024	1452.199	979.810	1747.841	-6981.861	-1415.179	19.979
3800	569.024	1467.374	992.442	1804.743	-6960.207	-1265.014	17.389
3900	569.024	1482.155	1004.810	1861.646	-6938.652	-1115.420	14.939
4000	569.024	1496.561	1016.924	1918.548	-6917.201	-966.382	12.620
