Magnesium Titanium Oxide (MgTi2O5)	Mg1O5Ti2(l)
T(K)	Cp	S	-[G-H(Tr)]/T	H-H(Tr)	delta-f H	delta-f G	log Kf
0														
100														
200														
298.15	146.858	197.783	197.783	0.	-2382.307	-2260.282	395.992
300	147.335	198.692	197.785	0.272	-2382.310	-2259.525	393.418
400	165.753	243.867	203.819	16.019	-2381.773	-2218.643	289.725
500	176.665	282.105	215.754	33.175	-2380.411	-2178.007	227.535
600	184.498	315.037	229.620	51.250	-2378.654	-2137.686	186.102
700	190.807	343.964	243.931	70.024	-2376.665	-2097.680	156.531
800	196.276	369.807	258.078	89.383	-2374.486	-2057.972	134.372
900	201.238	393.215	271.813	109.262	-2372.221	-2018.544	117.153
1000	205.870	414.660	285.040	129.620	-2378.616	-1978.653	103.354
1100	210.284	434.490	297.736	150.429	-2376.641	-1938.752	92.064
1200	214.539	452.970	309.911	171.671	-2382.691	-1898.789	82.652
1300	218.681	470.307	321.589	193.333	-2379.379	-1858.597	74.679
1300.000	218.681	470.307	321.589	193.333	GLASS <--> LIQUID
1300.000	261.082	470.307	321.589	193.333	TRANSITION
1400	261.082	489.655	332.911	219.441	-2499.262	-1815.654	67.743
1500	261.082	507.668	343.968	245.549	-2490.636	-1767.128	61.537
1600	261.082	524.518	354.732	271.657	-2482.284	-1719.168	56.125
1700	261.082	540.345	365.189	297.765	-2474.229	-1671.721	51.366
1800	261.082	555.268	375.339	323.873	-2466.497	-1624.740	47.149
1900	261.082	569.384	385.184	349.982	-2459.112	-1578.179	43.387
1963.000	261.082	577.901	391.233	366.430	CRYSTAL <--> LIQUID
2000	261.082	582.776	394.731	376.090	2481.473  1531.089 39.988
2100	261.082	595.514	403.992	402.198	-2476.355	-1483.696	36.905
2200	261.082	607.660	412.975	428.306	-2471.294	-1436.544	34.108
2300	261.082	619.265	421.694	454.414	-2466.290	-1389.624	31.559
2400	261.082	630.377	430.159	480.522	-2461.342	-1342.919	29.228
2500	261.082	641.035	438.383	506.631	-2456.451	-1296.419	27.087
2600	261.082	651.275	446.375	532.739	-2451.614	-1250.113	25.115
2700	261.082	661.128	454.148	558.847	-2446.832	-1203.992	23.293
2800	261.082	670.623	461.710	584.955	-2442.105	-1158.047	21.604
2900	261.082	679.785	469.073	611.063	-2437.431	-1112.272	20.034
3000	261.082	688.636	476.245	637.171	-2432.812	-1066.655	18.572
3100	261.082	697.196	483.235	663.280	-2428.245	-1021.190	17.207
3200	261.082	705.485	490.052	689.388	-2423.732	-975.875	15.930
3300	261.082	713.519	496.702	715.496	-2419.271	-930.700	14.732
3400	261.082	721.313	503.195	741.604	-2414.863	-885.656	13.606
3500	261.082	728.882	509.535	767.712	-2410.508	-840.744	12.547
3600	261.082	736.236	515.731	793.820	-2406.207	-795.954	11.549
3700	261.082	743.390	521.788	819.928	-3220.157	-735.708	10.386
3800	261.082	750.352	527.711	846.037	-3213.497	-668.648	9.191
3900	261.082	757.134	533.507	872.145	-3207.003	-601.763	8.060
4000	261.082	763.744	539.181	898.253	-3200.675	-535.044	6.987
