Strontium Chloride (SrCl2)	Cl2Sr1(cr,l)
T(K)	Cp	S	-[G-H(Tr)]/T	H-H(Tr)	delta-f H	delta-f G	log Kf
0	0.	0.	INFINITE	0.	-813.101	-813.101	INFINITE
100	65.775	38.171	178.944	-14.077	-831.590	-813.701	425.034
200	71.271	85.512	121.591	-7.216	-830.254	-796.322	207.978
298.15	75.588	114.809	114.809	0.	-828.850	-779.965	136.647
300	75.659	115.277	114.810	0.140	-828.823	-779.661	135.751
400	78.889	137.512	117.820	7.877	-827.285	-763.503	99.703
500	81.321	155.385	123.603	15.891	-825.670	-747.743	78.116
600	83.659	170.415	130.185	24.138	-823.985	-732.315	63.754
700	86.580	183.518	136.887	32.642	-822.187	-717.177	53.516
800	90.793	195.336	143.465	41.497	-820.171	-702.309	45.856
900	96.977	206.364	149.846	50.866	-818.397	-687.644	39.910
1000	105.826	217.013	156.032	60.981	-815.052	-673.287	35.169
1000.010	105.827	217.014	156.033	60.982	ALPHA <--> BETA
1000.010	123.010	223.022	156.033	66.990	TRANSITION
1100	123.010	234.745	162.663	79.290	-811.429	-659.613	31.322
1147.000	123.010	239.892	165.723	85.071	BETA <--> LIQUID
1147.000	104.600	254.034	165.723	101.293	TRANSITION
1200	104.600	258.759	169.729	106.836	-791.591	-646.742	28.152
1300	104.600	267.132	176.903	117.296	-788.849	-634.782	25.506
1400	104.600	274.883	183.629	127.756	-786.117	-623.033	23.246
1500	104.600	282.100	189.956	138.216	-783.394	-611.480	21.294
1600	104.600	288.851	195.928	148.676	-780.680	-600.107	19.591
1700	104.600	295.192	201.582	159.136	-914.890	-587.725	18.059
1800	104.600	301.171	206.950	169.596	-910.333	-568.611	16.501
1900	104.600	306.826	212.060	180.056	-905.792	-549.751	15.114
2000	104.600	312.191	216.933	190.516	-901.269	-531.129	13.872
2100	104.600	317.295	221.592	200.976	-896.769	-512.732	12.754
2200	104.600	322.161	226.053	211.436	-892.298	-494.550	11.742
2300	104.600	326.811	230.334	221.896	-887.862	-476.570	10.823
2400	104.600	331.262	234.447	232.356	-883.470	-458.782	9.985
2500	104.600	335.532	238.406	242.816	-879.131	-441.176	9.218
2600	104.600	339.635	242.221	253.276	-874.852	-423.742	8.513
2700	104.600	343.582	245.902	263.736	-870.645	-406.472	7.864
2800	104.600	347.386	249.459	274.196	-866.521	-389.356	7.264
2900	104.600	351.057	252.900	284.656	-862.488	-372.386	6.707
3000	104.600	354.603	256.231	295.116	-858.558	-355.553	6.191
